'Id: "COMMANDER Sample ID" Comment: "Integrate frame Universtitaet Erlangen Nuernberg Institut_1341_250117_095249-000.gfrmwith cursor Ring-Cursor #1" Operator: "Bruker Service" Anode: "Cu" Wavelength: "1.5406" Scantype: "Gamma (Gamma)" TimePerStep: "5800" X: "0" Y: "5" Z: "-0.4395" 
256.78000 25.263
256.80000 24.687
256.82000 25.334
256.84000 24.930
256.86000 25.529
256.88000 25.693
256.90000 25.819
256.92000 26.059
256.94000 25.896
256.96000 25.832
256.98000 25.917
257.00000 25.839
257.02000 26.040
257.04000 26.031
257.06000 25.697
257.08000 25.726
257.10000 25.750
257.12000 25.915
257.14000 26.110
257.16000 25.809
257.18000 25.993
257.20000 26.024
257.22000 26.096
257.24000 25.981
257.26000 26.037
257.28000 25.965
257.30000 26.224
257.32000 26.019
257.34000 26.040
257.36000 26.097
257.38000 26.343
257.40000 26.176
257.42000 26.066
257.44000 26.115
257.46000 26.083
257.48000 26.154
257.50000 26.033
257.52000 26.028
257.54000 25.973
257.56000 25.973
257.58000 26.198
257.60000 26.224
257.62000 26.046
257.64000 26.049
257.66000 26.220
257.68000 25.845
257.70000 26.037
257.72000 25.820
257.74000 26.241
257.76000 25.930
257.78000 26.196
257.80000 25.888
257.82000 25.923
257.84000 26.004
257.86000 25.758
257.88000 25.943
257.90000 25.982
257.92000 26.124
257.94000 25.880
257.96000 25.741
257.98000 25.811
258.00000 25.944
258.02000 25.765
258.04000 26.076
258.06000 25.826
258.08000 26.004
258.10000 25.932
258.12000 25.939
258.14000 25.730
258.16000 25.929
258.18000 26.023
258.20000 25.907
258.22000 26.203
258.24000 26.036
258.26000 26.014
258.28000 25.945
258.30000 25.682
258.32000 25.909
258.34000 25.892
258.36000 25.857
258.38000 25.980
258.40000 26.051
258.42000 26.029
258.44000 25.866
258.46000 25.996
258.48000 25.962
258.50000 25.470
258.52000 25.861
258.54000 25.870
258.56000 25.938
258.58000 25.940
258.60000 25.995
258.62000 26.126
258.64000 26.166
258.66000 25.844
258.68000 25.877
258.70000 25.946
258.72000 25.756
258.74000 26.131
258.76000 25.968
258.78000 25.815
258.80000 26.044
258.82000 26.089
258.84000 26.055
258.86000 26.114
258.88000 26.008
258.90000 25.945
258.92000 25.766
258.94000 25.698
258.96000 25.886
258.98000 25.863
259.00000 25.717
259.02000 25.705
259.04000 25.832
259.06000 25.808
259.08000 25.898
259.10000 25.806
259.12000 25.617
259.14000 25.815
259.16000 26.044
259.18000 26.072
259.20000 26.233
259.22000 26.096
259.24000 26.119
259.26000 26.023
259.28000 26.014
259.30000 25.854
259.32000 26.256
259.34000 25.820
259.36000 26.134
259.38000 25.854
259.40000 25.888
259.42000 26.022
259.44000 25.979
259.46000 26.076
259.48000 26.062
259.50000 25.926
259.52000 25.894
259.54000 26.122
259.56000 26.035
259.58000 26.054
259.60000 26.004
259.62000 26.040
259.64000 26.015
259.66000 25.976
259.68000 25.856
259.70000 25.754
259.72000 25.994
259.74000 25.968
259.76000 26.151
259.78000 25.626
259.80000 26.160
259.82000 26.045
259.84000 26.053
259.86000 26.070
259.88000 26.124
259.90000 25.855
259.92000 25.749
259.94000 25.966
259.96000 25.822
259.98000 25.871
260.00000 25.935
260.02000 25.990
260.04000 25.904
260.06000 25.922
260.08000 25.911
260.10000 25.938
260.12000 25.804
260.14000 25.800
260.16000 25.754
260.18000 26.199
260.20000 26.070
260.22000 26.078
260.24000 25.803
260.26000 26.275
260.28000 26.006
260.30000 25.955
260.32000 25.791
260.34000 26.291
260.36000 26.008
260.38000 25.878
260.40000 25.844
260.42000 25.905
260.44000 26.142
260.46000 26.211
260.48000 25.963
260.50000 26.188
260.52000 25.847
260.54000 26.188
260.56000 26.023
260.58000 25.866
260.60000 25.946
260.62000 26.206
260.64000 26.075
260.66000 26.065
260.68000 26.126
260.70000 25.971
260.72000 26.014
260.74000 25.966
260.76000 25.965
260.78000 26.016
260.80000 25.997
260.82000 26.032
260.84000 26.075
260.86000 26.080
260.88000 26.058
260.90000 26.150
260.92000 26.086
260.94000 25.991
260.96000 25.999
260.98000 25.959
261.00000 26.161
261.02000 25.940
261.04000 26.232
261.06000 25.956
261.08000 26.193
261.10000 25.960
261.12000 26.098
261.14000 26.224
261.16000 26.274
261.18000 26.065
261.20000 25.977
261.22000 26.168
261.24000 26.215
261.26000 26.154
261.28000 26.051
261.30000 25.875
261.32000 25.945
261.34000 25.918
261.36000 26.107
261.38000 26.156
261.40000 26.229
261.42000 26.200
261.44000 26.076
261.46000 26.031
261.48000 26.133
261.50000 26.085
261.52000 25.751
261.54000 26.169
261.56000 26.245
261.58000 26.096
261.60000 26.095
261.62000 26.077
261.64000 26.234
261.66000 26.090
261.68000 26.359
261.70000 26.131
261.72000 26.176
261.74000 25.893
261.76000 26.288
261.78000 26.192
261.80000 26.137
261.82000 26.241
261.84000 26.087
261.86000 25.950
261.88000 26.277
261.90000 26.341
261.92000 26.266
261.94000 25.983
261.96000 26.418
261.98000 26.319
262.00000 26.269
262.02000 26.106
262.04000 25.977
262.06000 26.077
262.08000 26.284
262.10000 26.396
262.12000 26.387
262.14000 26.061
262.16000 26.264
262.18000 26.364
262.20000 26.320
262.22000 26.117
262.24000 26.030
262.26000 26.212
262.28000 26.075
262.30000 26.334
262.32000 26.192
262.34000 26.265
262.36000 26.230
262.38000 25.976
262.40000 26.140
262.42000 26.413
262.44000 26.236
262.46000 26.313
262.48000 25.996
262.50000 26.300
262.52000 26.038
262.54000 26.505
262.56000 26.551
262.58000 26.726
262.60000 26.845
262.62000 26.660
262.64000 26.841
262.66000 26.518
262.68000 26.693
262.70000 26.418
262.72000 26.247
262.74000 26.543
262.76000 26.181
262.78000 26.393
262.80000 26.386
262.82000 26.738
262.84000 26.685
262.86000 26.421
262.88000 26.602
262.90000 26.846
262.92000 26.880
262.94000 26.863
262.96000 26.821
262.98000 27.383
263.00000 27.054
263.02000 27.612
263.04000 27.605
263.06000 27.978
263.08000 28.085
263.10000 28.412
263.12000 28.638
263.14000 28.714
263.16000 29.603
263.18000 29.201
263.20000 30.535
263.22000 29.832
263.24000 31.809
263.26000 31.572
263.28000 31.501
263.30000 32.506
263.32000 31.692
263.34000 32.759
263.36000 31.563
263.38000 33.476
263.40000 32.803
263.42000 33.012
263.44000 32.857
263.46000 32.381
263.48000 33.159
263.50000 32.267
263.52000 31.820
263.54000 31.836
263.56000 32.042
263.58000 30.868
263.60000 30.995
263.62000 30.611
263.64000 29.910
263.66000 29.845
263.68000 29.931
263.70000 29.056
263.72000 28.850
263.74000 28.982
263.76000 28.220
263.78000 28.036
263.80000 27.956
263.82000 27.617
263.84000 27.569
263.86000 27.169
263.88000 27.065
263.90000 26.985
263.92000 26.791
263.94000 26.660
263.96000 26.813
263.98000 26.400
264.00000 26.461
264.02000 26.569
264.04000 26.549
264.06000 26.620
264.08000 26.365
264.10000 26.347
264.12000 26.502
264.14000 26.289
264.16000 26.327
264.18000 26.415
264.20000 26.636
264.22000 26.783
264.24000 26.712
264.26000 26.601
264.28000 26.396
264.30000 26.491
264.32000 26.534
264.34000 26.340
264.36000 26.496
264.38000 26.703
264.40000 26.857
264.42000 26.398
264.44000 26.414
264.46000 26.580
264.48000 26.671
264.50000 26.571
264.52000 26.572
264.54000 26.721
264.56000 26.482
264.58000 26.756
264.60000 26.812
264.62000 26.804
264.64000 26.996
264.66000 26.839
264.68000 26.801
264.70000 26.860
264.72000 27.308
264.74000 27.249
264.76000 26.992
264.78000 27.198
264.80000 27.373
264.82000 27.670
264.84000 27.299
264.86000 27.427
264.88000 27.348
264.90000 27.902
264.92000 27.534
264.94000 27.467
264.96000 27.561
264.98000 27.859
265.00000 27.275
265.02000 27.054
265.04000 27.632
265.06000 27.579
265.08000 27.648
265.10000 27.512
265.12000 27.278
265.14000 27.524
265.16000 27.265
265.18000 27.369
265.20000 27.122
265.22000 27.305
265.24000 26.928
265.26000 26.780
265.28000 27.146
265.30000 27.196
265.32000 26.827
265.34000 26.468
265.36000 26.562
265.38000 26.753
265.40000 26.414
265.42000 26.583
265.44000 26.659
265.46000 26.749
265.48000 26.560
265.50000 26.425
265.52000 26.618
265.54000 26.476
265.56000 26.538
265.58000 26.811
265.60000 26.263
265.62000 26.382
265.64000 26.694
265.66000 26.476
265.68000 26.523
265.70000 26.284
265.72000 26.466
265.74000 26.687
265.76000 26.657
265.78000 26.527
265.80000 26.560
265.82000 26.559
265.84000 26.396
265.86000 26.321
265.88000 26.499
265.90000 26.553
265.92000 26.417
265.94000 26.360
265.96000 26.546
265.98000 26.586
266.00000 26.588
266.02000 26.644
266.04000 26.391
266.06000 26.659
266.08000 26.440
266.10000 26.538
266.12000 26.232
266.14000 26.572
266.16000 26.564
266.18000 26.486
266.20000 26.530
266.22000 26.732
266.24000 26.440
266.26000 26.475
266.28000 26.613
266.30000 26.210
266.32000 26.371
266.34000 26.619
266.36000 26.452
266.38000 26.700
266.40000 26.337
266.42000 26.606
266.44000 26.465
266.46000 26.287
266.48000 26.591
266.50000 26.501
266.52000 26.146
266.54000 26.217
266.56000 26.473
266.58000 26.619
266.60000 26.467
266.62000 26.216
266.64000 26.323
266.66000 26.284
266.68000 26.392
266.70000 26.255
266.72000 26.808
266.74000 26.463
266.76000 26.425
266.78000 26.433
266.80000 26.697
266.82000 26.523
266.84000 26.472
266.86000 26.473
266.88000 26.354
266.90000 26.330
266.92000 26.749
266.94000 26.632
266.96000 26.078
266.98000 26.612
267.00000 26.773
267.02000 26.465
267.04000 26.535
267.06000 26.665
267.08000 26.575
267.10000 26.614
267.12000 26.540
267.14000 26.200
267.16000 26.680
267.18000 26.390
267.20000 26.315
267.22000 26.484
267.24000 26.908
267.26000 26.696
267.28000 26.507
267.30000 26.577
267.32000 26.755
267.34000 26.631
267.36000 26.402
267.38000 26.594
267.40000 26.626
267.42000 26.777
267.44000 26.778
267.46000 26.597
267.48000 26.686
267.50000 26.609
267.52000 26.195
267.54000 26.524
267.56000 26.823
267.58000 26.791
267.60000 26.439
267.62000 26.371
267.64000 26.882
267.66000 26.592
267.68000 26.396
267.70000 26.614
267.72000 26.970
267.74000 26.925
267.76000 26.578
267.78000 26.538
267.80000 26.640
267.82000 27.072
267.84000 26.549
267.86000 26.244
267.88000 26.814
267.90000 27.032
267.92000 26.768
267.94000 26.558
267.96000 26.930
267.98000 27.362
268.00000 26.673
268.02000 26.713
268.04000 26.967
268.06000 27.808
268.08000 27.173
268.10000 27.119
268.12000 27.058
268.14000 28.150
268.16000 27.309
268.18000 26.895
268.20000 27.281
268.22000 28.048
268.24000 27.225
268.26000 26.781
268.28000 27.242
268.30000 28.101
268.32000 27.420
268.34000 27.233
268.36000 27.529
268.38000 28.109
268.40000 27.397
268.42000 26.829
268.44000 27.076
268.46000 27.884
268.48000 27.590
268.50000 26.987
268.52000 26.841
268.54000 27.432
268.56000 27.156
268.58000 26.580
268.60000 27.004
268.62000 27.030
268.64000 27.130
268.66000 26.235
268.68000 26.707
268.70000 27.054
268.72000 27.107
268.74000 26.266
268.76000 26.532
268.78000 26.713
268.80000 26.701
268.82000 26.450
268.84000 26.296
268.86000 26.770
268.88000 26.753
268.90000 26.340
268.92000 26.273
268.94000 26.856
268.96000 26.690
268.98000 26.288
269.00000 26.524
269.02000 26.841
269.04000 26.632
269.06000 26.510
269.08000 26.346
269.10000 26.894
269.12000 26.609
269.14000 26.737
269.16000 26.248
269.18000 27.020
269.20000 26.535
269.22000 26.759
269.24000 26.052
269.26000 26.691
269.28000 26.485
269.30000 26.473
269.32000 25.702
269.34000 26.845
269.36000 26.698
269.38000 26.691
269.40000 26.227
269.42000 27.533
269.44000 27.377
269.46000 27.217
269.48000 26.413
269.50000 27.285
269.52000 26.252
269.54000 26.342
269.56000 26.523
269.58000 26.629
269.60000 26.676
269.62000 26.459
269.64000 25.377
269.66000 26.686
269.68000 26.633
269.70000 26.285
269.72000 26.483
269.74000 26.589
269.76000 26.401
269.78000 26.539
269.80000 25.787
269.82000 26.684
269.84000 26.450
269.86000 26.678
269.88000 25.908
269.90000 26.308
269.92000 26.331
269.94000 26.405
269.96000 25.663
269.98000 26.678
270.00000 26.712
270.02000 26.300
270.04000 26.518
270.06000 25.244
270.08000 26.611
270.10000 26.491
270.12000 26.612
270.14000 25.385
270.16000 26.326
270.18000 26.564
270.20000 26.568
270.22000 25.809
270.24000 26.479
270.26000 26.648
270.28000 26.702
270.30000 25.995
270.32000 26.600
270.34000 26.363
270.36000 26.644
270.38000 25.014
270.40000 26.483
270.42000 26.516
270.44000 26.809
270.46000 25.791
270.48000 26.680
270.50000 26.595
270.52000 26.828
270.54000 26.224
270.56000 26.777
270.58000 26.496
270.60000 26.556
270.62000 26.211
270.64000 26.366
270.66000 26.518
270.68000 26.757
270.70000 26.186
270.72000 26.450
270.74000 26.691
270.76000 26.750
270.78000 26.148
270.80000 26.438
270.82000 26.487
270.84000 26.744
270.86000 25.951
270.88000 26.191
270.90000 26.199
270.92000 26.666
270.94000 26.153
270.96000 26.736
270.98000 26.654
271.00000 26.499
271.02000 26.404
271.04000 26.297
271.06000 26.406
271.08000 26.887
271.10000 26.334
271.12000 26.511
271.14000 26.430
271.16000 26.565
271.18000 26.474
271.20000 26.521
271.22000 26.722
271.24000 26.724
271.26000 26.601
271.28000 26.351
271.30000 26.556
271.32000 27.021
271.34000 26.452
271.36000 25.947
271.38000 26.519
271.40000 26.636
271.42000 26.467
271.44000 26.156
271.46000 26.415
271.48000 26.615
271.50000 26.492
271.52000 26.073
271.54000 26.406
271.56000 26.876
271.58000 26.309
271.60000 25.876
271.62000 26.649
271.64000 26.799
271.66000 26.688
271.68000 25.946
271.70000 26.367
271.72000 27.224
271.74000 26.640
271.76000 26.044
271.78000 26.223
271.80000 26.786
271.82000 26.569
271.84000 26.447
271.86000 26.230
271.88000 27.040
271.90000 26.678
271.92000 26.195
271.94000 26.295
271.96000 26.736
271.98000 26.370
272.00000 26.297
272.02000 26.273
272.04000 26.640
272.06000 26.735
272.08000 26.630
272.10000 26.341
272.12000 26.858
272.14000 26.492
272.16000 26.215
272.18000 26.334
272.20000 26.718
272.22000 26.545
272.24000 25.914
272.26000 26.270
272.28000 26.531
272.30000 26.625
272.32000 26.270
272.34000 26.184
272.36000 26.406
272.38000 26.601
272.40000 26.417
272.42000 26.274
272.44000 26.794
272.46000 27.101
272.48000 26.197
272.50000 26.164
272.52000 26.380
272.54000 26.473
272.56000 26.573
272.58000 26.401
272.60000 26.091
272.62000 26.608
272.64000 26.352
272.66000 26.420
272.68000 26.408
272.70000 26.645
272.72000 26.316
272.74000 26.454
272.76000 26.626
272.78000 26.418
272.80000 26.472
272.82000 26.400
272.84000 26.397
272.86000 26.148
272.88000 26.381
272.90000 26.365
272.92000 26.647
272.94000 26.489
272.96000 26.253
272.98000 26.355
273.00000 26.406
273.02000 26.584
273.04000 26.214
273.06000 25.933
273.08000 26.442
273.10000 26.359
273.12000 26.533
273.14000 26.456
273.16000 26.305
273.18000 26.545
273.20000 26.619
273.22000 26.533
273.24000 26.205
273.26000 26.361
273.28000 26.478
273.30000 26.507
273.32000 26.636
273.34000 26.261
273.36000 26.373
273.38000 26.478
273.40000 26.408
273.42000 26.570
273.44000 26.500
273.46000 26.457
273.48000 26.590
273.50000 26.324
273.52000 26.429
273.54000 26.230
273.56000 26.350
273.58000 26.242
273.60000 26.761
273.62000 26.279
273.64000 26.443
273.66000 26.461
273.68000 26.201
273.70000 26.452
273.72000 26.183
273.74000 26.571
273.76000 26.625
273.78000 26.460
273.80000 26.645
273.82000 26.353
273.84000 26.550
273.86000 26.451
273.88000 26.319
273.90000 26.607
273.92000 26.439
273.94000 26.618
273.96000 26.487
273.98000 26.427
274.00000 26.504
274.02000 26.697
274.04000 26.550
274.06000 26.530
274.08000 26.337
274.10000 26.652
274.12000 26.536
274.14000 26.475
274.16000 26.496
274.18000 26.611
274.20000 26.795
274.22000 26.536
274.24000 26.391
274.26000 26.634
274.28000 26.542
274.30000 26.160
274.32000 26.188
274.34000 26.822
274.36000 26.225
274.38000 26.383
274.40000 26.079
274.42000 26.346
274.44000 26.245
274.46000 26.342
274.48000 26.483
274.50000 26.397
274.52000 26.380
274.54000 26.409
274.56000 26.538
274.58000 26.409
274.60000 26.299
274.62000 26.197
274.64000 26.216
274.66000 26.239
274.68000 26.223
274.70000 26.233
274.72000 26.210
274.74000 26.422
274.76000 26.370
274.78000 26.386
274.80000 26.116
274.82000 26.460
274.84000 26.390
274.86000 26.314
274.88000 26.319
274.90000 26.190
274.92000 26.452
274.94000 26.208
274.96000 26.489
274.98000 26.596
275.00000 26.645
275.02000 26.365
275.04000 26.568
275.06000 26.387
275.08000 26.190
275.10000 26.284
275.12000 26.441
275.14000 26.366
275.16000 26.309
275.18000 26.054
275.20000 26.245
275.22000 26.105
275.24000 26.355
275.26000 26.428
275.28000 26.294
275.30000 26.394
275.32000 26.284
275.34000 26.405
275.36000 26.585
275.38000 26.565
275.40000 26.555
275.42000 26.630
275.44000 26.756
275.46000 26.649
275.48000 26.641
275.50000 26.593
275.52000 26.807
275.54000 26.947
275.56000 26.460
275.58000 26.506
275.60000 26.675
275.62000 27.018
275.64000 26.864
275.66000 26.826
275.68000 26.860
275.70000 26.621
275.72000 26.737
275.74000 26.640
275.76000 26.969
275.78000 26.926
275.80000 26.832
275.82000 26.651
275.84000 26.772
275.86000 26.685
275.88000 26.558
275.90000 26.618
275.92000 26.667
275.94000 26.457
275.96000 26.818
275.98000 26.328
276.00000 26.635
276.02000 26.436
276.04000 26.666
276.06000 26.665
276.08000 26.544
276.10000 26.680
276.12000 26.570
276.14000 26.486
276.16000 26.316
276.18000 26.450
276.20000 26.404
276.22000 26.569
276.24000 26.505
276.26000 26.965
276.28000 26.919
276.30000 26.960
276.32000 26.669
276.34000 26.840
276.36000 26.776
276.38000 26.638
276.40000 26.109
276.42000 26.268
276.44000 26.172
276.46000 26.370
276.48000 26.321
276.50000 26.319
276.52000 26.252
276.54000 26.420
276.56000 26.488
276.58000 26.346
276.60000 26.231
276.62000 26.050
276.64000 26.311
276.66000 26.158
276.68000 26.426
276.70000 26.404
276.72000 26.337
276.74000 26.757
276.76000 26.550
276.78000 26.403
276.80000 26.180
276.82000 26.375
276.84000 26.153
276.86000 26.358
276.88000 26.260
276.90000 26.471
276.92000 26.238
276.94000 26.274
276.96000 26.513
276.98000 26.224
277.00000 26.440
277.02000 26.427
277.04000 26.446
277.06000 26.538
277.08000 26.161
277.10000 26.448
277.12000 26.123
277.14000 26.416
277.16000 26.285
277.18000 26.293
277.20000 26.198
277.22000 26.165
277.24000 26.293
277.26000 26.236
277.28000 26.379
277.30000 26.501
277.32000 26.315
277.34000 26.192
277.36000 26.133
277.38000 26.194
277.40000 26.115
277.42000 26.302
277.44000 25.899
277.46000 26.141
277.48000 25.987
277.50000 26.252
277.52000 26.353
277.54000 26.173
277.56000 26.224
277.58000 26.410
277.60000 26.140
277.62000 26.145
277.64000 26.453
277.66000 26.514
277.68000 26.517
277.70000 26.260
277.72000 26.324
277.74000 26.479
277.76000 26.183
277.78000 26.012
277.80000 26.349
277.82000 26.212
277.84000 26.325
277.86000 26.227
277.88000 26.036
277.90000 26.299
277.92000 26.108
277.94000 25.975
277.96000 26.160
277.98000 26.147
278.00000 26.356
278.02000 26.208
278.04000 26.333
278.06000 26.515
278.08000 26.413
278.10000 26.033
278.12000 26.155
278.14000 26.094
278.16000 26.316
278.18000 26.176
278.20000 26.287
278.22000 26.086
278.24000 26.286
278.26000 26.139
278.28000 26.129
278.30000 26.235
278.32000 26.169
278.34000 26.172
278.36000 25.985
278.38000 26.280
278.40000 26.161
278.42000 26.236
278.44000 26.142
278.46000 26.204
278.48000 26.192
278.50000 26.380
278.52000 26.163
278.54000 25.865
278.56000 26.093
278.58000 26.002
278.60000 25.997
278.62000 26.025
278.64000 26.251
278.66000 26.236
278.68000 26.132
278.70000 26.207
278.72000 25.937
278.74000 26.221
278.76000 26.319
278.78000 25.992
278.80000 25.786
278.82000 26.207
278.84000 26.165
278.86000 26.349
278.88000 26.214
278.90000 26.124
278.92000 26.038
278.94000 26.348
278.96000 26.166
278.98000 26.210
279.00000 26.059
279.02000 26.026
279.04000 25.970
279.06000 26.431
279.08000 26.096
279.10000 26.473
279.12000 26.181
279.14000 26.214
279.16000 26.222
279.18000 26.314
279.20000 26.183
279.22000 26.306
279.24000 26.238
279.26000 26.137
279.28000 26.306
279.30000 26.380
279.32000 26.066
279.34000 26.345
279.36000 26.240
279.38000 26.292
279.40000 26.416
279.42000 26.292
279.44000 26.451
279.46000 26.181
279.48000 26.302
279.50000 26.506
279.52000 26.582
279.54000 26.336
279.56000 26.243
279.58000 26.299
279.60000 26.285
279.62000 26.521
279.64000 26.372
279.66000 26.415
279.68000 26.756
279.70000 26.682
279.72000 26.497
279.74000 26.530
279.76000 26.792
279.78000 26.379
279.80000 26.612
279.82000 26.447
279.84000 26.711
279.86000 26.910
279.88000 26.582
279.90000 26.824
279.92000 26.620
279.94000 26.576
279.96000 26.823
279.98000 26.587
280.00000 26.620
280.02000 26.424
280.04000 26.929
280.06000 26.473
280.08000 26.613
280.10000 26.525
280.12000 26.480
280.14000 26.528
280.16000 26.438
280.18000 26.378
280.20000 26.130
280.22000 26.329
280.24000 26.365
280.26000 26.344
280.28000 26.378
280.30000 26.142
280.32000 26.378
280.34000 26.285
280.36000 26.002
280.38000 26.348
280.40000 26.245
280.42000 26.089
280.44000 26.116
280.46000 26.489
280.48000 26.266
280.50000 26.132
280.52000 26.091
280.54000 26.081
280.56000 26.036
280.58000 26.332
280.60000 26.431
280.62000 26.239
280.64000 26.170
280.66000 26.205
280.68000 26.257
280.70000 26.057
280.72000 26.428
280.74000 26.237
280.76000 26.389
280.78000 26.383
280.80000 26.240
280.82000 26.357
280.84000 26.225
280.86000 26.426
280.88000 26.369
280.90000 26.221
280.92000 25.839
280.94000 26.336
280.96000 26.352
280.98000 26.229
281.00000 26.215
281.02000 26.221
281.04000 26.141
281.06000 26.370
281.08000 26.165
281.10000 26.060
281.12000 25.869
281.14000 25.995
281.16000 26.072
281.18000 26.309
281.20000 26.068
281.22000 25.954
281.24000 25.962
281.26000 25.905
281.28000 26.007
281.30000 26.132
281.32000 26.103
281.34000 25.993
281.36000 25.824
281.38000 25.699
281.40000 25.779
281.42000 25.948
281.44000 25.730
281.46000 26.021
281.48000 25.948
281.50000 25.959
281.52000 25.973
281.54000 25.766
281.56000 25.875
281.58000 25.685
281.60000 25.768
281.62000 25.714
281.64000 26.083
281.66000 26.350
281.68000 25.914
281.70000 26.041
281.72000 26.149
281.74000 26.033
281.76000 25.885
281.78000 25.863
281.80000 25.893
281.82000 26.150
281.84000 25.857
281.86000 26.105
281.88000 26.102
281.90000 25.989
281.92000 25.825
281.94000 25.980
281.96000 25.928
281.98000 25.999
282.00000 26.005
282.02000 26.022
282.04000 25.948
282.06000 25.834
282.08000 25.909
282.10000 25.852
282.12000 26.190
282.14000 25.780
282.16000 26.004
282.18000 25.997
282.20000 26.023
282.22000 25.978
282.24000 25.975
282.26000 26.146
282.28000 25.890
282.30000 25.764
282.32000 25.882
282.34000 25.948
282.36000 25.952
282.38000 25.987
282.40000 26.189
282.42000 26.041
282.44000 25.986
282.46000 25.881
282.48000 25.990
282.50000 25.857
282.52000 25.814
282.54000 25.949
282.56000 25.766
282.58000 25.918
282.60000 25.873
282.62000 25.863
282.64000 25.896
282.66000 25.888
282.68000 26.059
282.70000 25.995
282.72000 26.087
282.74000 25.824
282.76000 26.124
282.78000 25.842
282.80000 25.974
282.82000 26.239
282.84000 26.062
282.86000 26.085
282.88000 26.039
282.90000 26.212
282.92000 26.201
282.94000 26.462
282.96000 26.742
282.98000 26.992
283.00000 28.132
283.02000 28.669
283.04000 29.718
283.06000 29.566
283.08000 30.401
283.10000 29.513
283.12000 30.406
283.14000 32.222
283.16000 31.823
283.18000 38.810
283.20000 35.384
283.22000 33.853
